Measuring selection sort...
# Size             Best          Worst        Average   (ms) 
#------------------------------------------------------------
       0           0.21           0.23           0.24
    1000         824.20         838.58         649.96
    2000        1852.69        3357.26        2116.90
    3000        4123.02        7665.69        4673.19
    4000        7316.75       13774.84        8243.28
    5000       11437.72       21677.75       12839.32
    6000       16403.03       31291.69       18412.83
    7000       22344.19       42766.39       25022.37
    8000       29169.62       55921.12       32760.23
    9000       38739.38       71015.65       41271.88
   10000       45521.13       87639.10       50921.89
   11000       55051.57      106305.82       61582.40
   12000       65501.12      126428.31       73218.50
   13000       76845.46      148621.35       86133.94
   14000       89136.05      172374.66       99649.79
   15000      102274.81      198026.18      114261.12
   16000      117448.56      226066.84      129907.62
   17000      134474.93      254681.42      147360.86
   18000      149302.54      285532.67      164872.00
   19000      165129.42      319648.78      185461.87
   20000      181655.40      352912.61      202982.77
